   0.0000    499732
   0.0050    403635
   0.0100    336611
   0.0150    299848
   0.0200    258223
   0.0250    231295
   0.0300    222900
   0.0350    213239
   0.0400    203583
   0.0450    193875
   0.0500    185969
   0.0550    180367
   0.0600    168452
   0.0650    155003
   0.0700    144461
   0.0750    139136
   0.0800    131767
   0.0850    125213
   0.0900    119249
   0.0950    111789
   0.1000    104014
   0.1050     95561
   0.1100     87021
   0.1150     79392
   0.1200     72902
   0.1250     67925
   0.1300     62751
   0.1350     56973
   0.1400     50785
   0.1450     46357
   0.1500     42319
   0.1550     39321
   0.1600     35702
   0.1650     33063
   0.1700     30591
   0.1750     27717
   0.1800     25114
   0.1850     21973
   0.1900     19240
   0.1950     16249
   0.2000     14049
   0.2050     12130
   0.2100     10111
   0.2150      8592
   0.2200      7101
   0.2250      6068
   0.2300      5101
   0.2350      4314
   0.2400      3508
   0.2450      3019
   0.2500      2714
   0.2550      2287
   0.2600      2101
   0.2650      1939
   0.2700      1752
   0.2750      1588
   0.2800      1507
   0.2850      1404
   0.2900      1248
   0.2950      1201
   0.3000      1016
   0.3050       963
   0.3100       891
   0.3150       808
   0.3200       737
   0.3250       757
   0.3300       726
   0.3350       692
   0.3400       649
   0.3450       628
   0.3500       610
   0.3550       520
   0.3600       490
   0.3650       524
   0.3700       477
   0.3750       507
   0.3800       488
   0.3850       488
   0.3900       470
   0.3950       441
   0.4000       420
   0.4050       398
   0.4100       339
   0.4150       347
   0.4200       321
   0.4250       352
   0.4300       333
   0.4350       332
   0.4400       308
   0.4450       312
   0.4500       281
   0.4550       285
   0.4600       258
   0.4650       245
   0.4700       252
   0.4750       258
   0.4800       249
   0.4850       256
   0.4900       290
   0.4950       238
   0.5000       233
   0.5050       214
   0.5100       218
   0.5150       197
   0.5200       178
   0.5250       197
   0.5300       201
   0.5350       187
   0.5400       215
   0.5450       170
   0.5500       194
   0.5550       160
   0.5600       183
   0.5650       153
   0.5700       137
   0.5750       157
   0.5800       146
   0.5850       157
   0.5900       185
   0.5950       166
   0.6000       139
   0.6050       152
   0.6100       142
   0.6150       114
   0.6200       116
   0.6250       115
   0.6300        98
   0.6350       103
   0.6400       126
   0.6450       121
   0.6500       137
   0.6550       111
   0.6600        92
   0.6650        94
   0.6700       113
   0.6750        93
   0.6800       100
   0.6850        84
   0.6900       103
   0.6950        97
   0.7000       102
   0.7050       108
   0.7100       102
   0.7150        83
   0.7200        85
   0.7250        69
   0.7300        72
   0.7350        78
   0.7400        61
   0.7450        77
   0.7500        76
   0.7550        82
   0.7600        77
   0.7650        77
   0.7700        66
   0.7750        67
   0.7800        60
   0.7850        65
   0.7900        62
   0.7950        56
   0.8000        50
   0.8050        68
   0.8100        74
   0.8150        74
   0.8200        61
   0.8250        43
   0.8300        47
   0.8350        49
   0.8400        52
   0.8450        48
   0.8500        36
   0.8550        50
   0.8600        51
   0.8650        39
   0.8700        47
   0.8750        34
   0.8800        37
   0.8850        44
   0.8900        43
   0.8950        34
   0.9000        26
   0.9050        40
   0.9100        38
   0.9150        32
   0.9200        37
   0.9250        36
   0.9300        35
   0.9350        31
   0.9400        35
   0.9450        20
   0.9500        23
   0.9550        25
   0.9600        38
   0.9650        31
   0.9700        28
   0.9750        30
   0.9800        24
   0.9850        24
   0.9900        21
   0.9950        27
   1.0000        30
   1.0050        20
   1.0100        20
   1.0150        24
   1.0200        24
   1.0250        14
   1.0300        16
   1.0350        19
   1.0400        17
   1.0450        25
   1.0500        16
   1.0550        19
   1.0600        23
   1.0650        21
   1.0700        20
   1.0750        14
   1.0800        18
   1.0850        21
   1.0900        13
   1.0950        14
   1.1000        16
   1.1050        13
   1.1100        18
   1.1150        19
   1.1200        15
   1.1250        18
   1.1300        11
   1.1350        21
   1.1400        16
   1.1450         9
   1.1500        17
   1.1550        14
   1.1600        15
   1.1650        12
   1.1700        14
   1.1750         8
   1.1800        11
   1.1850        15
   1.1900         8
   1.1950        13
   1.2000         7
   1.2050        10
   1.2100         6
   1.2150         6
   1.2200        10
   1.2250         9
   1.2300         7
   1.2350        15
   1.2400        11
   1.2450         5
   1.2500         8
   1.2550        10
   1.2600        12
   1.2650        11
   1.2700        10
   1.2750         8
   1.2800        13
   1.2850         5
   1.2900        11
   1.2950         3
   1.3000         6
   1.3050         9
   1.3100         6
   1.3150         5
   1.3200         5
   1.3250         8
   1.3300        10
   1.3350         8
   1.3400         5
   1.3450         8
   1.3500         5
   1.3550         5
   1.3600        10
   1.3650         6
   1.3700         5
   1.3750         5
   1.3800        11
   1.3850         4
   1.3900         5
   1.3950         7
   1.4000         8
   1.4050         7
   1.4100         7
   1.4150         4
   1.4200         6
   1.4250         9
   1.4300         9
   1.4350         5
   1.4400         3
   1.4450         5
   1.4500         5
   1.4550         4
   1.4600         6
   1.4650         0
   1.4700         3
   1.4750         4
   1.4800         5
   1.4850         5
   1.4900         2
   1.4950         4
   1.5000         2
   1.5050         5
   1.5100         3
   1.5150         3
   1.5200         2
   1.5250         1
   1.5300         3
   1.5350         5
   1.5400         3
   1.5450         3
   1.5500         4
   1.5550         4
   1.5600         2
   1.5650         0
   1.5700         2
   1.5750         1
   1.5800         4
   1.5850         3
   1.5900         1
   1.5950         5
   1.6000         2
   1.6050         3
   1.6100         5
   1.6150         3
   1.6200         2
   1.6250         2
   1.6300         2
   1.6350         0
   1.6400         0
   1.6450         2
   1.6500         1
   1.6550         1
   1.6600         1
   1.6650         1
   1.6700         6
   1.6750         2
   1.6800         2
   1.6850         1
   1.6900         1
   1.6950         2
   1.7000         3
   1.7050         4
   1.7100         0
   1.7150         1
   1.7200         1
   1.7250         0
   1.7300         0
   1.7350         3
   1.7400         3
   1.7450         0
   1.7500         0
   1.7550         3
   1.7600         2
   1.7650         0
   1.7700         1
   1.7750         1
   1.7800         2
   1.7850         1
   1.7900         1
   1.7950         2
   1.8000         1
   1.8050         0
   1.8100         2
   1.8150         4
   1.8200         1
   1.8250         2
   1.8300         1
   1.8350         1
   1.8400         2
   1.8450         2
   1.8500         2
   1.8550         0
   1.8600         0
   1.8650         1
   1.8700         3
   1.8750         0
   1.8800         2
   1.8850         0
   1.8900         2
   1.8950         1
   1.9000         2
   1.9050         0
   1.9100         0
   1.9150         0
   1.9200         0
   1.9250         1
   1.9300         0
   1.9350         0
   1.9400         0
   1.9450         0
   1.9500         2
   1.9550         0
   1.9600         0
   1.9650         2
   1.9700         1
   1.9750         1
   1.9800         2
   1.9850         1
   1.9900         3
   1.9950         0
   2.0000         0
   2.0050         3
   2.0100         3
   2.0150         0
   2.0200         0
   2.0250         1
   2.0300         1
   2.0350         0
   2.0400         0
   2.0450         3
   2.0500         1
   2.0550         1
   2.0600         0
   2.0650         1
   2.0700         0
   2.0750         0
   2.0800         0
   2.0850         1
   2.0900         0
   2.0950         0
   2.1000         1
   2.1050         0
   2.1100         0
   2.1150         0
   2.1200         1
   2.1250         3
   2.1300         0
   2.1350         0
   2.1400         3
   2.1450         1
   2.1500         1
   2.1550         0
   2.1600         2
   2.1650         1
   2.1700         1
   2.1750         0
   2.1800         0
   2.1850         0
   2.1900         0
   2.1950         2
   2.2000         1
   2.2050         1
   2.2100         1
   2.2150         2
   2.2200         0
   2.2250         0
   2.2300         0
   2.2350         0
   2.2400         1
   2.2450         1
   2.2500         2
   2.2550         0
   2.2600         0
   2.2650         1
   2.2700         2
   2.2750         1
   2.2800         0
   2.2850         1
   2.2900         2
   2.2950         1
   2.3000         0
   2.3050         2
   2.3100         0
   2.3150         0
   2.3200         0
   2.3250         0
   2.3300         0
   2.3350         0
   2.3400         1
   2.3450         1
   2.3500         1
   2.3550         0
   2.3600         0
   2.3650         0
   2.3700         3
   2.3750         0
   2.3800         2
   2.3850         0
   2.3900         0
   2.3950         0
   2.4000         1
   2.4050         0
   2.4100         0
   2.4150         0
   2.4200         0
   2.4250         1
   2.4300         0
   2.4350         1
   2.4400         1
   2.4450         0
   2.4500         1
   2.4550         1
   2.4600         0
   2.4650         0
   2.4700         1
   2.4750         2
   2.4800         1
   2.4850         0
   2.4900         0
   2.4950         1
   2.5000         1
