   0.0000   5494740
   0.0050   5454030
   0.0100   5291710
   0.0150   4863880
   0.0200   4078300
   0.0250   3212230
   0.0300   2578100
   0.0350   2125890
   0.0400   1852920
   0.0450   1711380
   0.0500   1636110
   0.0550   1606020
   0.0600   1613480
   0.0650   1666020
   0.0700   1708060
   0.0750   1762880
   0.0800   1830560
   0.0850   1916270
   0.0900   1980890
   0.0950   2055260
   0.1000   2114610
   0.1050   2196460
   0.1100   2263810
   0.1150   2328120
   0.1200   2379480
   0.1250   2440390
   0.1300   2492030
   0.1350   2548070
   0.1400   2600680
   0.1450   2648210
   0.1500   2686880
   0.1550   2728450
   0.1600   2755840
   0.1650   2804790
   0.1700   2828520
   0.1750   2831280
   0.1800   2819180
   0.1850   2763020
   0.1900   2692930
   0.1950   2550160
   0.2000   2365480
   0.2050   2147840
   0.2100   1931540
   0.2150   1708020
   0.2200   1487490
   0.2250   1232020
   0.2300    978502
   0.2350    772423
   0.2400    586642
   0.2450    424224
   0.2500    323829
   0.2550    269980
   0.2600    244514
   0.2650    225415
   0.2700    205372
   0.2750    177871
   0.2800    148241
   0.2850    121793
   0.2900    102103
   0.2950     92729
   0.3000     89083
   0.3050     88402
   0.3100     86575
   0.3150     81856
   0.3200     73330
   0.3250     63169
   0.3300     54333
   0.3350     47755
   0.3400     44424
   0.3450     43791
   0.3500     43959
   0.3550     43404
   0.3600     42570
   0.3650     38996
   0.3700     34520
   0.3750     30591
   0.3800     27298
   0.3850     25438
   0.3900     24581
   0.3950     24497
   0.4000     25017
   0.4050     24448
   0.4100     23252
   0.4150     21457
   0.4200     19164
   0.4250     17228
   0.4300     15750
   0.4350     15214
   0.4400     14815
   0.4450     14844
   0.4500     15167
   0.4550     14909
   0.4600     14233
   0.4650     12948
   0.4700     11702
   0.4750     10432
   0.4800      9896
   0.4850      9684
   0.4900      9544
   0.4950      9772
   0.5000      9792
   0.5050      9676
   0.5100      9067
   0.5150      8276
   0.5200      7643
   0.5250      6852
   0.5300      6477
   0.5350      6264
   0.5400      6405
   0.5450      6398
   0.5500      6419
   0.5550      6267
   0.5600      6217
   0.5650      5636
   0.5700      5074
   0.5750      4826
   0.5800      4386
   0.5850      4221
   0.5900      4243
   0.5950      4320
   0.6000      4383
   0.6050      4490
   0.6100      4207
   0.6150      3960
   0.6200      3638
   0.6250      3387
   0.6300      3039
   0.6350      2938
   0.6400      2838
   0.6450      2972
   0.6500      2997
   0.6550      3048
   0.6600      2953
   0.6650      2842
   0.6700      2549
   0.6750      2431
   0.6800      2211
   0.6850      2090
   0.6900      2040
   0.6950      1997
   0.7000      2023
   0.7050      2113
   0.7100      2108
   0.7150      2009
   0.7200      1890
   0.7250      1723
   0.7300      1603
   0.7350      1558
   0.7400      1495
   0.7450      1441
   0.7500      1455
   0.7550      1514
   0.7600      1521
   0.7650      1389
   0.7700      1390
   0.7750      1297
   0.7800      1146
   0.7850      1112
   0.7900      1036
   0.7950      1016
   0.8000      1048
   0.8050      1037
   0.8100      1063
   0.8150      1087
   0.8200      1046
   0.8250       949
   0.8300       885
   0.8350       829
   0.8400       821
   0.8450       779
   0.8500       747
   0.8550       758
   0.8600       841
   0.8650       771
   0.8700       753
   0.8750       700
   0.8800       654
   0.8850       644
   0.8900       604
   0.8950       506
   0.9000       550
   0.9050       511
   0.9100       598
   0.9150       585
   0.9200       586
   0.9250       530
   0.9300       522
   0.9350       467
   0.9400       444
   0.9450       444
   0.9500       417
   0.9550       417
   0.9600       406
   0.9650       421
   0.9700       402
   0.9750       392
   0.9800       417
   0.9850       360
   0.9900       342
   0.9950       340
   1.0000       321
   1.0050       343
   1.0100       317
   1.0150       370
   1.0200       331
   1.0250       298
   1.0300       298
   1.0350       261
   1.0400       268
   1.0450       245
   1.0500       235
   1.0550       240
   1.0600       213
   1.0650       230
   1.0700       212
   1.0750       236
   1.0800       239
   1.0850       246
   1.0900       202
   1.0950       224
   1.1000       195
   1.1050       192
   1.1100       168
   1.1150       173
   1.1200       183
   1.1250       188
   1.1300       182
   1.1350       171
   1.1400       157
   1.1450       165
   1.1500       140
   1.1550       130
   1.1600       144
   1.1650       129
   1.1700       146
   1.1750       123
   1.1800       136
   1.1850       126
   1.1900       139
   1.1950       123
   1.2000       127
   1.2050       102
   1.2100       103
   1.2150        96
   1.2200       113
   1.2250       114
   1.2300       112
   1.2350       112
   1.2400        94
   1.2450        80
   1.2500        88
   1.2550        89
   1.2600        83
   1.2650        76
   1.2700        83
   1.2750        84
   1.2800        75
   1.2850        91
   1.2900        72
   1.2950        88
   1.3000        74
   1.3050        70
   1.3100        66
   1.3150        51
   1.3200        64
   1.3250        57
   1.3300        60
   1.3350        63
   1.3400        69
   1.3450        53
   1.3500        64
   1.3550        63
   1.3600        46
   1.3650        45
   1.3700        43
   1.3750        39
   1.3800        53
   1.3850        50
   1.3900        60
   1.3950        59
   1.4000        51
   1.4050        48
   1.4100        40
   1.4150        51
   1.4200        38
   1.4250        35
   1.4300        46
   1.4350        36
   1.4400        28
   1.4450        41
   1.4500        38
   1.4550        38
   1.4600        26
   1.4650        26
   1.4700        29
   1.4750        27
   1.4800        38
   1.4850        37
   1.4900        33
   1.4950        24
   1.5000        31
   1.5050        38
   1.5100        37
   1.5150        26
   1.5200        32
   1.5250        27
   1.5300        19
   1.5350        26
   1.5400        26
   1.5450        24
   1.5500        26
   1.5550        22
   1.5600        31
   1.5650        18
   1.5700        24
   1.5750        24
   1.5800        23
   1.5850        27
   1.5900        23
   1.5950        22
   1.6000        16
   1.6050        22
   1.6100        13
   1.6150        26
   1.6200        19
   1.6250        20
   1.6300         9
   1.6350        15
   1.6400        14
   1.6450        14
   1.6500        10
   1.6550        15
   1.6600        10
   1.6650        12
   1.6700        17
   1.6750        16
   1.6800        11
   1.6850        13
   1.6900         7
   1.6950         5
   1.7000         9
   1.7050        11
   1.7100        10
   1.7150        12
   1.7200        10
   1.7250         7
   1.7300        15
   1.7350        18
   1.7400         9
   1.7450        11
   1.7500         9
   1.7550         7
   1.7600        13
   1.7650         8
   1.7700        10
   1.7750         8
   1.7800        10
   1.7850         5
   1.7900         9
   1.7950         8
   1.8000         3
   1.8050         7
   1.8100         8
   1.8150         4
   1.8200         7
   1.8250         7
   1.8300         9
   1.8350        14
   1.8400         9
   1.8450         7
   1.8500         6
   1.8550         8
   1.8600         7
   1.8650         5
   1.8700         3
   1.8750         8
   1.8800         9
   1.8850         6
   1.8900         3
   1.8950         9
   1.9000         5
   1.9050         8
   1.9100         7
   1.9150         8
   1.9200        12
   1.9250         4
   1.9300         3
   1.9350         5
   1.9400         5
   1.9450         2
   1.9500         3
   1.9550         4
   1.9600         3
   1.9650         0
   1.9700         3
   1.9750         6
   1.9800         2
   1.9850         5
   1.9900         4
   1.9950         3
   2.0000         6
   2.0050         5
   2.0100         7
   2.0150         3
   2.0200         0
   2.0250         5
   2.0300         6
   2.0350         2
   2.0400         4
   2.0450         3
   2.0500         6
   2.0550         8
   2.0600         3
   2.0650         3
   2.0700         2
   2.0750         4
   2.0800         1
   2.0850         5
   2.0900         2
   2.0950         4
   2.1000         4
   2.1050         1
   2.1100         4
   2.1150         3
   2.1200         0
   2.1250         5
   2.1300         2
   2.1350         2
   2.1400         2
   2.1450         7
   2.1500         3
   2.1550         5
   2.1600         7
   2.1650         2
   2.1700         2
   2.1750         2
   2.1800         2
   2.1850         2
   2.1900         1
   2.1950         2
   2.2000         1
   2.2050         5
   2.2100         0
   2.2150         2
   2.2200         4
   2.2250         4
   2.2300         0
   2.2350         2
   2.2400         2
   2.2450         2
   2.2500         4
   2.2550         2
   2.2600         4
   2.2650         5
   2.2700         1
   2.2750         2
   2.2800         5
   2.2850         0
   2.2900         0
   2.2950         1
   2.3000         3
   2.3050         1
   2.3100         2
   2.3150         2
   2.3200         3
   2.3250         1
   2.3300         1
   2.3350         1
   2.3400         2
   2.3450         1
   2.3500         3
   2.3550         3
   2.3600         1
   2.3650         0
   2.3700         2
   2.3750         1
   2.3800         3
   2.3850         3
   2.3900         1
   2.3950         2
   2.4000         1
   2.4050         1
   2.4100         1
   2.4150         1
   2.4200         1
   2.4250         1
   2.4300         1
   2.4350         3
   2.4400         1
   2.4450         0
   2.4500         0
   2.4550         2
   2.4600         2
   2.4650         0
   2.4700         1
   2.4750         1
   2.4800         0
   2.4850         1
   2.4900         1
   2.4950         2
   2.5000         1
